Frequency (Hz),Magnitude (db)
0.0,-144.301983398052
1.0,-144.28231647211862
2.0,-144.22375289212252
3.0,-144.12757321781112
4.0,-143.9957982073279
5.0,-143.83104098863686
6.0,-143.6363313961158
7.0,-143.41493375651476
8.0,-143.17018163661686
9.0,-142.90533629402609
10.0,-142.6234850623875
11.0,-142.32746344760363
12.0,-142.0198180242525
13.0,-141.70278829364054
14.0,-141.37830727779573
15.0,-141.04801900482883
16.0,-140.71329843877774
17.0,-140.3752808075096
18.0,-140.03488780321044
19.0,-139.69285623951262
20.0,-139.34976416852584
21.0,-139.0060536094428
22.0,-138.66205224101475
23.0,-138.31799108567364
24.0,-137.97402096486098
25.0,-137.63022536830158
26.0,-137.28663176477335
27.0,-136.9432219032949
28.0,-136.59993882645986
29.0,-136.25669387774425
30.0,-135.91337253231546
31.0,-135.56983759185212
32.0,-135.22593456797213
33.0,-134.8814927627643
34.0,-134.53632924679596
35.0,-134.19024931217254
36.0,-133.84304883800928
37.0,-133.49451498614485
38.0,-133.1444268980047
39.0,-132.7925564765356
40.0,-132.4386684089251
41.0,-132.082520512121
42.0,-131.7238636349907
43.0,-131.3624411120679
44.0,-130.9979892274133
45.0,-130.6302357393597
46.0,-130.25890017656212
47.0,-129.88369267774937
48.0,-129.50431323219775
49.0,-129.12045097077663
50.0,-128.73178284023072
51.0,-128.33797277765163
52.0,-127.93866993932573
53.0,-127.53350785699469
54.0,-127.12210225430982
55.0,-126.70404957069879
56.0,-126.27892498193859
57.0,-125.84627996314606
58.0,-125.405640101436
59.0,-124.95650205028969
60.0,-124.49833058158853
61.0,-124.03055514628996
62.0,-123.55256564490793
63.0,-123.06370840473753
64.0,-122.56328068775252
65.0,-122.05052523877384
66.0,-121.5246234760739
67.0,-120.984688068037
68.0,-120.42975409130969
69.0,-119.85876889263919
70.0,-119.2705804594597
71.0,-118.66392341173847
72.0,-118.03740296131222
73.0,-117.38947566863393
74.0,-116.7184266330087
75.0,-116.02234222497323
76.0,-115.29907707553446
77.0,-114.54621419919573
78.0,-113.76101588178355
79.0,-112.940363256563
80.0,-112.08068084635241
81.0,-111.17784143268919
82.0,-110.2270449143601
83.0,-109.22266173818912
84.0,-108.15802818660542
85.0,-107.02517372102882
86.0,-105.81445218507926
87.0,-104.5140321053945
88.0,-103.10917596638673
89.0,-101.58119357522567
90.0,-99.90587287507856
91.0,-98.05103735588561
92.0,-95.97256502801267
93.0,-93.6075182571661
94.0,-90.86138260941081
95.0,-87.58190546140776
96.0,-83.49736874092895
97.0,-78.03502501054336
98.0,-69.5111078566004
99.0,-6.007579442824444
100.0,3.4715788795918267e-14
101.0,-6.007579449936329
102.0,-69.51108656305561
103.0,-78.03493977551707
104.0,-83.4971555384628
105.0,-87.58147880525256
106.0,-90.86063544667438
107.0,-93.60632184907499
108.0,-95.97076876994036
109.0,-98.04846863308804
110.0,-99.90233682667795
111.0,-101.57647285308525
112.0,-103.10303049987787
113.0,-104.50619876851788
114.0,-105.80464452827583
115.0,-107.01308153754749
116.0,-108.1433172300222
117.0,-109.20497325362257
118.0,-110.20599513387549
119.0,-111.15302125528346
120.0,-112.0516551499046
121.0,-112.90667048153853
122.0,-113.72216735600202
123.0,-114.50169360099345
124.0,-115.2483397072854
125.0,-115.96481430434402
126.0,-116.65350465034425
127.0,-117.31652548520185
128.0,-117.95575905846496
129.0,-118.57288797851334
130.0,-119.16942249198988
131.0,-119.74672325563307
132.0,-120.30602036254764
133.0,-120.84842972275297
134.0,-121.37496648061932
135.0,-121.88655700709914
136.0,-122.38404888676938
137.0,-122.86821951455543
138.0,-123.3397838165759
139.0,-123.79940041331027
140.0,-124.24767790589277
141.0,-124.6851791755193
142.0,-125.11242641438139
143.0,-125.52990456536662
144.0,-125.93806495205243
145.0,-126.33732829142258
146.0,-126.72808730767237
147.0,-127.1107092831702
148.0,-127.48553813895349
149.0,-127.8528962610927
150.0,-128.21308662142548
151.0,-128.56639373368063
152.0,-128.91308571755778
153.0,-129.2534150254016
154.0,-129.58762006694707
155.0,-129.91592583425881
156.0,-130.23854520650605
157.0,-130.55567966614666
158.0,-130.86751992154038
159.0,-131.17424715989222
160.0,-131.47603301302237
161.0,-131.77304079918412
162.0,-132.06542568432417
163.0,-132.3533353195618
164.0,-132.63691038137554
165.0,-132.9162848978976
166.0,-133.19158675495427
167.0,-133.46293806025295
168.0,-133.7304552310584
169.0,-133.9942499145715
170.0,-134.25442847903716
171.0,-134.5110931588851
172.0,-134.7643413769063
173.0,-135.01426703610795
174.0,-135.26095969151768
175.0,-135.5045055397024
176.0,-135.74498726295815
177.0,-135.98248421885384
178.0,-136.21707266589436
179.0,-136.44882608606477
180.0,-136.67781491035103
181.0,-136.90410711055588
182.0,-137.12776802584136
183.0,-137.3488607252912
184.0,-137.5674458270989
185.0,-137.78358188684004
186.0,-137.99732537211167
187.0,-138.20873076694104
188.0,-138.41785065282053
189.0,-138.62473572279544
190.0,-138.82943532461798
191.0,-139.03199660259784
192.0,-139.23246550540827
193.0,-139.43088649885448
194.0,-139.62730248150697
195.0,-139.82175475792363
196.0,-140.01428393363895
197.0,-140.20492864467786
198.0,-140.3937268951017
199.0,-140.58071510770245
200.0,-140.76592895938643
201.0,-140.94940250230377
202.0,-141.13116947652063
203.0,-141.31126209168687
204.0,-141.4897119633975
205.0,-141.66654916263926
206.0,-141.84180418666287
207.0,-142.01550472077915
208.0,-142.18768002220529
209.0,-142.35835610381915
210.0,-142.52756027996926
211.0,-142.6953177461881
212.0,-142.8616540592318
213.0,-143.0265929877114
214.0,-143.19015861785314
215.0,-143.35237391915845
216.0,-143.51326136083046
217.0,-143.67284282667475
218.0,-143.8311395813187
219.0,-143.988172452544
220.0,-144.14396153974434
221.0,-144.29852685045074
222.0,-144.4518872756116
223.0,-144.60406177996853
224.0,-144.75506860238963
225.0,-144.90492567707284
226.0,-145.05365004370586
227.0,-145.20125909407147
228.0,-145.3477693455446
229.0,-145.49319670568605
230.0,-145.63755742905784
231.0,-145.78086637038294
232.0,-145.9231391736213
233.0,-146.06439000726877
234.0,-146.20463383003107
235.0,-146.34388425488595
236.0,-146.48215510451064
237.0,-146.61945988679045
238.0,-146.75581196903752
239.0,-146.89122359154857
240.0,-147.02570762018254
241.0,-147.15927657854286
242.0,-147.2919422767427
243.0,-147.42371593035284
244.0,-147.55461012773873
245.0,-147.684634680547
246.0,-147.81380252294787
247.0,-147.94212216028737
248.0,-148.06960604782336
249.0,-148.19626334193185
250.0,-148.3221047098113
251.0,-148.4471397971588
252.0,-148.57137834820722
253.0,-148.6948298218286
254.0,-148.8175036451347
255.0,-148.93940870159648
256.0,-149.0605542663096
257.0,-149.18094837329977
258.0,-149.30060066029978
259.0,-149.41951845144163
260.0,-149.5377104944934
261.0,-149.65518480556545
262.0,-149.7719492640751
263.0,-149.88801171462148
264.0,-150.00337921308676
265.0,-150.11806007215267
266.0,-150.23206072903764
267.0,-150.34538905343192
268.0,-150.45805116116657
269.0,-150.5700551327695
270.0,-150.6814065533604
271.0,-150.79211276169713
272.0,-150.9021799388179
273.0,-151.01161451620462
274.0,-151.12042234590575
275.0,-151.22861058732568
276.0,-151.33618380378192
277.0,-151.4431492651122
278.0,-151.54951138918653
279.0,-151.65527727193017
280.0,-151.76045108757114
281.0,-151.8650390039318
282.0,-151.96904656151963
283.0,-152.0724783609166
284.0,-152.17533992471226
285.0,-152.27763626520118
286.0,-152.37937201920923
287.0,-152.48055257419753
288.0,-152.58118223730375
289.0,-152.68126571005334
290.0,-152.78080776002795
291.0,-152.8798123536277
292.0,-152.97828493915875
293.0,-153.07622847863712
294.0,-153.17364831471323
295.0,-153.27054775058977
296.0,-153.36693167412787
297.0,-153.46280283414447
298.0,-153.5581664275009
299.0,-153.65302563781742
300.0,-153.74738432569077
301.0,-153.84124580932735
302.0,-153.9346143107776
303.0,-154.02749273050938
304.0,-154.11988483823487
305.0,-154.2117938284269
306.0,-154.30322376003235
307.0,-154.39417600843734
308.0,-154.48465643192444
309.0,-154.57466528600614
310.0,-154.6642072279593
311.0,-154.75328557626705
312.0,-154.8419018798967
313.0,-154.9300604916578
314.0,-155.0177617660022
315.0,-155.10501116218126
316.0,-155.191810617153
317.0,-155.27816039300166
318.0,-155.36406649127065
319.0,-155.4495292667878
320.0,-155.5345512000522
321.0,-155.61913479380343
322.0,-155.70328288554728
323.0,-155.78699703126446
324.0,-155.87027965431542
325.0,-155.95313319320925
326.0,-156.03555892728696
327.0,-156.1175599892648
328.0,-156.19913653639094
329.0,-156.2802921082443
330.0,-156.36102771145664
331.0,-156.44134479550638
332.0,-156.52124647211525
333.0,-156.60073281905386
334.0,-156.67980666650817
335.0,-156.75846804579896
336.0,-156.83672102601844
337.0,-156.91456270447668
338.0,-156.9920003622288
339.0,-157.06902958857455
340.0,-157.14565627839247
341.0,-157.22187749342814
342.0,-157.29769882065915
343.0,-157.37311710242574
344.0,-157.44813739515342
345.0,-157.5227546307094
346.0,-157.59698090663906
347.0,-157.67080400960148
348.0,-157.74423196659797
349.0,-157.81726759318033
350.0,-157.8899059693032
351.0,-157.96215211177122
352.0,-158.0340037952786
353.0,-158.1054626342328
354.0,-158.1765312601488
355.0,-158.24720682150473
356.0,-158.31749301268127
357.0,-158.38738695299713
358.0,-158.45689256675632
359.0,-158.52600661271154
360.0,-158.5947323873688
361.0,-158.66306833167332
362.0,-158.7310152689072
363.0,-158.79857339995826
364.0,-158.86574295928912
365.0,-158.93252281935625
366.0,-158.99891466217727
367.0,-159.06491737240788
368.0,-159.1305314356633
369.0,-159.1957550550888
370.0,-159.26059162014295
371.0,-159.3250365755581
372.0,-159.38909305098585
373.0,-159.45275874639876
374.0,-159.5160332225599
375.0,-159.57891891850232
376.0,-159.6414104283199
377.0,-159.70351178700895
378.0,-159.7652201026836
379.0,-159.82653513167514
380.0,-159.8874563468899
381.0,-159.94798310614132
382.0,-160.00811463149108
383.0,-160.06785015363846
384.0,-160.12718844088835
385.0,-160.18612931708904
386.0,-160.2446703495017
387.0,-160.30281368555006
388.0,-160.36055437950813
389.0,-160.41789460472052
390.0,-160.47483044203972
391.0,-160.53136331335497
392.0,-160.58749061622262
393.0,-160.64321125099283
394.0,-160.69852427705737
395.0,-160.7534281116035
396.0,-160.80792129102562
397.0,-160.86200221515764
398.0,-160.91567006673156
399.0,-160.968923489394
400.0,-161.02175958211436
401.0,-161.07417860438977
402.0,-161.1261772564323
403.0,-161.17775429084787
404.0,-161.22890988215258
405.0,-161.27963870984672
406.0,-161.32994309012827
407.0,-161.37981762331606
408.0,-161.42926226236287
409.0,-161.47827573472952
410.0,-161.52685393421729
411.0,-161.57499724602616
412.0,-161.62270280832217
413.0,-161.66996668952353
414.0,-161.7167908735774
415.0,-161.76316830897335
416.0,-161.80910256041858
417.0,-161.85458664172157
418.0,-161.89962011758575
419.0,-161.94420155678588
420.0,-161.98832643768282
421.0,-162.03199652870643
422.0,-162.075204966206
423.0,-162.11795201486055
424.0,-162.1602358881874
425.0,-162.20205193775382
426.0,-162.2433994755518
427.0,-162.28427416515478
428.0,-162.3246783384941
429.0,-162.36460200934644
430.0,-162.40405027780372
431.0,-162.44301603939908
432.0,-162.48149793988705
433.0,-162.5194939724166
434.0,-162.55700028434677
435.0,-162.59401630400916
436.0,-162.63053779805165
437.0,-162.66656212976162
438.0,-162.70209037863768
439.0,-162.73711278544084
440.0,-162.77163416088615
441.0,-162.80564745577988
442.0,-162.8391517483017
443.0,-162.87214442424494
444.0,-162.90462156352393
445.0,-162.93658344547106
446.0,-162.96802069142143
447.0,-162.9989443704352
448.0,-163.0293341606227
449.0,-163.0592038506518
450.0,-163.08853731919416
451.0,-163.11734353990386
452.0,-163.1456087133306
453.0,-163.17334613196536
454.0,-163.20053477551068
455.0,-163.22718066245213
456.0,-163.2532914590395
457.0,-163.2788434029317
458.0,-163.30385347218126
459.0,-163.32830507218227
460.0,-163.35220936896891
461.0,-163.3755505997595
462.0,-163.3983367714768
463.0,-163.4205600167938
464.0,-163.44221969357426
465.0,-163.4633140670129
466.0,-163.48384008564793
467.0,-163.50379798130322
468.0,-163.5231804862658
469.0,-163.54199207101215
470.0,-163.56022536791758
471.0,-163.5778821869605
472.0,-163.59495803343373
473.0,-163.61145374539763
474.0,-163.6273639039196
475.0,-163.64269065216723
476.0,-163.65742856638704
477.0,-163.67157958073074
478.0,-163.6851394234756
479.0,-163.69810880486506
480.0,-163.71048330192426
481.0,-163.72226483336732
482.0,-163.7334492831673
483.0,-163.74403746729797
484.0,-163.75402705098884
485.0,-163.7634168558602
486.0,-163.77220557407492
487.0,-163.78039381965766
488.0,-163.78797902543877
489.0,-163.7949602010316
490.0,-163.80133762888624
491.0,-163.8071095441416
492.0,-163.81227630421682
493.0,-163.81683599099458
494.0,-163.8207893087053
495.0,-163.82413488177107
496.0,-163.8268735401515
497.0,-163.82900258260688
498.0,-163.8305245788459
499.0,-163.8314374532759
