Time (s),Amplitude
0.0,0.0
2.0833333333333333e-05,0.039260276232810816
4.1666666666666665e-05,0.07845856420519542
6.25e-05,0.11753739763528262
8.333333333333333e-05,0.15643552501777155
0.00010416666666666666,0.19508803144814799
0.000125,0.23344852989861753
0.00014583333333333332,0.27143726059398476
0.00016666666666666666,0.3090190914855197
0.0001875,0.3461170565534007
0.00020833333333333332,0.3826808348118153
0.00022916666666666666,0.4186646616666714
0.00025,0.4539843318121253
0.0002708333333333333,0.4886269925897219
0.00029166666666666664,0.5224950126138381
0.0003125,0.555570233863265
0.0003333333333333333,0.5877892490238309
0.00035416666666666664,0.6190866549615419
0.000375,0.6494568872415403
0.0003958333333333333,0.678792741987883
0.00041666666666666664,0.7071115967555355
0.0004375,0.7343225083172469
0.0004583333333333333,0.7604007860245904
0.00047916666666666664,0.7853261999790654
0.0005,0.8090059643935912
0.0005208333333333333,0.831479433160322
0.0005416666666666666,0.8526343474545264
0.0005625,0.8724960084056278
0.0005833333333333333,0.8910126040375925
0.0006041666666666667,0.9081324361479665
0.000625,0.9238921506749531
0.0006458333333333333,0.9381802350192506
0.0006666666666666666,0.9510630160380938
0.0006875,0.9624552349790929
0.0007083333333333333,0.9723632736740973
0.0007291666666666666,0.9807968974129664
0.00075,0.9876748271738105
0.0007708333333333333,0.9930802278869221
0.0007916666666666666,0.9969105085550796
0.0008125,0.9992290377761603
0.0008333333333333333,1.0000068476441923
0.0008541666666666666,0.9992171798975018
0.000875,0.9969309974868138
0.0008958333333333333,0.9930566652521822
0.0009166666666666666,0.9876951145243917
0.0009375,0.9807852788916995
0.0009583333333333333,0.9723632502001478
0.0009791666666666666,0.9624666766233643
0.001,0.9510434580866357
0.0010208333333333332,0.9382024956948245
0.0010416666666666667,0.92387318500887
0.0010624999999999999,0.9081431752287825
0.0010833333333333333,0.8910126470573217
0.0011041666666666667,0.8724856178634358
0.001125,0.8526518919870796
0.0011458333333333333,0.8314597044897768
0.0011666666666666665,0.8090225625500204
0.0011875,0.7853169296632583
0.0012083333333333334,0.7604007309528868
0.0012291666666666666,0.7343312688268969
0.00125,0.7070970380721667
0.0012708333333333332,0.6788088484636279
0.0012916666666666667,0.6494435704931811
0.0013124999999999999,0.6190939502724381
0.0013333333333333333,0.5877893057843618
0.0013541666666666667,0.5555635941368546
0.001375,0.5225057769038716
0.0013958333333333333,0.48861539842173746
0.0014166666666666666,0.4539936354804242
0.0014375,0.41865973688452923
0.0014583333333333332,0.38268078861787613
0.0014791666666666666,0.3461212004014982
0.0015,0.3090127213606356
0.0015208333333333332,0.27144370159103004
0.0015416666666666667,0.23344374857107225
0.0015624999999999999,0.19509032232127008
0.0015833333333333333,0.1564355476782395
0.0016041666666666667,0.11753598793295543
0.001625,0.07846018256943867
0.0016458333333333333,0.03925934460951431
0.0016666666666666666,5.665578169055193e-16
0.0016875,-0.039259815697478426
0.0017083333333333332,-0.07845855176954396
0.0017291666666666666,-0.11753880948954037
0.00175,-0.15643229420289181
0.0017708333333333332,-0.19509266742373169
0.0017916666666666667,-0.23344374281942035
0.0018124999999999999,-0.2714404502921725
0.0018333333333333333,-0.30901914060896796
0.0018541666666666665,-0.3461128916075572
0.001875,-0.3826887523121863
0.0018958333333333334,-0.41865469537536615
0.0019166666666666666,-0.45399365785152046
0.0019375,-0.4886212407258491
0.001958333333333333,-0.5224949293081095
0.0019791666666666664,-0.5555769311487707
0.002,-0.5877770665123405
0.0020208333333333332,-0.6191014187162066
0.0020416666666666665,-0.6494435224888677
0.0020625,-0.6788007466073633
0.0020833333333333333,-0.7071117098287437
0.0021041666666666665,-0.734313640410955
0.0021249999999999997,-0.7604165742853928
0.0021458333333333334,-0.7853074390640816
0.0021666666666666666,-0.8090226422830921
0.0021874999999999998,-0.8314696109825288
0.0022083333333333334,-0.8526342107047009
0.0022291666666666666,-0.8725065637654074
0.00225,-0.8909940712302056
0.0022708333333333335,-0.9081541698188342
0.0022916666666666667,-0.9238730711901056
0.0023125,-0.938191337416366
0.002333333333333333,-0.9510631690252447
0.0023541666666666667,-0.962443570471731
0.002375,-0.9723835348345586
0.002395833333333333,-0.9807733835853557
0.002416666666666667,-0.9876952605434173
0.0024375,-0.9930684553689084
0.002458333333333333,-0.9969103477140663
0.0024791666666666664,-0.9992411696562504
0.0025,-0.9999859736192779
0.0025208333333333333,-0.999241178501721
0.0025416666666666665,-0.9969103366032098
0.0025625,-0.9930684585457118
0.0025833333333333333,-0.9876952743505953
0.0026041666666666665,-0.9807733495867806
0.0026249999999999997,-0.9723835836952758
0.0026458333333333334,-0.9624435200685445
0.0026666666666666666,-0.9510632035199221
0.0026875,-0.9381913344151088
0.0027083333333333334,-0.9238730350627258
0.0027291666666666666,-0.9081542408193221
0.00275,-0.8909939816850897
0.002770833333333333,-0.8725066474264791
0.0027916666666666667,-0.8526341583568949
0.0028125,-0.8314696136424662
0.002833333333333333,-0.809022694245573
0.0028541666666666667,-0.7853073434906949
0.002875,-0.7604166889164041
0.002895833333333333,-0.7343135380420454
0.0029166666666666664,-0.7071117710081909
0.0029375,-0.6788007444357508
0.002958333333333333,-0.6494434644573778
0.0029791666666666664,-0.619101521003043
0.003,-0.5877769483659909
0.0030208333333333333,-0.5555770327773206
0.0030416666666666665,-0.5224948709723436
0.0030624999999999997,-0.4886212422891183
0.0030833333333333333,-0.45399370982532306
0.0031041666666666665,-0.41865460798345616
0.0031249999999999997,-0.38268884846441564
0.0031458333333333334,-0.3461128132295586
0.0031666666666666666,-0.30901918287507546
0.0031875,-0.27144044942368234
0.0032083333333333334,-0.23344371022797147
0.0032291666666666666,-0.19509271663849226
0.00325,-0.15643224703536046
0.003270833333333333,-0.117538841221704
0.0032916666666666667,-0.07845853906655094
0.0033125,-0.039259815823102215
0.003333333333333333,-1.1331158204801072e-15
0.0033541666666666668,0.039259332996694714
0.003375,0.07846021016964475
0.003395833333333333,0.11753595108451625
0.0034166666666666664,0.15643557693741209
0.0034375,0.19509032169697232
0.0034583333333333332,0.2334437042461035
0.0034791666666666664,0.27144379369762023
0.0035,0.30901259712198537
0.0035208333333333333,0.34612132397801654
0.0035416666666666665,0.3826807074230955
0.0035624999999999997,0.4186597382244049
0.0035833333333333333,0.4539937330918046
0.0036041666666666665,0.48861521134793195
0.0036249999999999998,0.5225060132383563
0.0036458333333333334,0.5555633715898627
0.0036666666666666666,0.5877894452711123
0.0036875,0.6190939482908971
0.003708333333333333,0.6494434145316831
0.0037291666666666667,0.6788091379046958
0.00375,0.7070966826852667
0.003770833333333333,0.7343315949513541
0.0037916666666666667,0.7604005313852409
0.0038125,0.7853169321771591
0.003833333333333333,0.8090227771699774
0.0038541666666666663,0.8314593137440114
0.003875,0.8526523633914023
0.003895833333333333,0.8724851923788077
0.003916666666666666,0.8910129033035302
0.0039375,0.9081431723213202
0.003958333333333333,0.9238729166881667
0.0039791666666666664,0.9382029774532534
0.004,0.9510428844417417
0.004020833333333333,0.9624671878962449
0.0040416666666666665,0.9723629461027296
0.0040625,0.9807852820322054
0.004083333333333333,0.9876954262143288
0.0041041666666666666,0.993056112058985
0.004125,0.9969316489356636
0.004145833333333333,0.9992166055632119
0.004166666666666667,1.0000071855330015
0.0041875,0.9992290345760679
0.004208333333333333,0.9969101688793495
0.004229166666666667,0.9930808243423962
0.0042499999999999994,0.9876741320697406
0.004270833333333333,0.9807975038762894
0.004291666666666667,0.9723629206616524
0.0043124999999999995,0.962455238061918
0.004333333333333333,0.9510633640116671
0.004354166666666667,0.9381796306454466
0.0043749999999999995,0.9238928473564473
0.004395833333333333,0.9081318350303342
0.004416666666666667,0.8910129499284118
0.0044375,0.8724960056104013
0.004458333333333333,0.8526340140375456
0.004479166666666667,0.8314800050200896
0.0045,0.8090053136155191
0.004520833333333333,0.7853267540219947
0.004541666666666667,0.7604004716984676
0.0045625,0.734322510670235
0.004583333333333333,0.707111891056921
0.004604166666666666,0.6787922455415559
0.004625,0.6494574423501742
0.004645833333333333,0.6190861912019416
0.004666666666666666,0.5877895067883077
0.0046875,0.5555702320827117
0.0047083333333333335,0.5224947819963297
0.004729166666666666,0.4886273712491712
0.00475,0.45398392091310874
0.0047708333333333335,0.41866499353612247
0.004791666666666666,0.38268065735791296
0.0048125,0.34611705766295014
0.004833333333333334,0.3090192356572147
0.004854166666666666,0.27143703840323624
0.004875,0.23344875294112666
0.004895833333333333,0.19508786829304653
0.004916666666666666,0.15643560149693317
0.0049375,0.1175373972584111
0.004958333333333333,0.07845852562448077
0.0049791666666666665,0.03926031008177213
0.005,3.673886962432611e-16
0.005020833333333333,-0.03926031045099669
0.0050416666666666665,-0.0784585246954673
0.0050625,-0.11753739765787202
0.005083333333333333,-0.156435603820246
0.005104166666666667,-0.19508786110827617
0.005125,-0.23344876540357398
0.005145833333333333,-0.2714370233009802
0.005166666666666667,-0.30901924756463933
0.005187499999999999,-0.3461170564866224
0.005208333333333333,-0.38268064145961816
0.005229166666666667,-0.4186650283104067
0.0052499999999999995,-0.45398387244034044
0.005270833333333333,-0.48862742102544576
0.005291666666666667,-0.5224947479156814
0.0053124999999999995,-0.5555702339709304
0.005333333333333333,-0.587789546897229
0.005354166666666667,-0.6190861111561237
0.005375,-0.6494575463640594
0.005395833333333333,-0.6787921450073398
0.005416666666666667,-0.7071119560542944
0.0054375,-0.7343225081743887
0.005458333333333333,-0.7604003995120907
0.005479166666666667,-0.785326891869388
0.0055,-0.8090051408528627
0.005520833333333333,-0.8314801666098011
0.005541666666666666,-0.8526339129014162
0.0055625,-0.8724960085760314
0.005583333333333333,-0.8910130582984886
0.005604166666666666,-0.9081316336323227
0.005625,-0.923893093975095
0.005645833333333333,-0.9381794049340028
0.005666666666666666,-0.9510635022114923
0.0056875,-0.962455234790299
0.0057083333333333335,-0.9723627764364794
0.005729166666666666,-0.9807977667364931
0.00575,-0.9876738156803008
0.0057708333333333335,-0.9930811091780184
0.005791666666666666,-0.9969099973993137
0.0058125,-0.9992290379729601
0.005833333333333333,-1.0000073605550626
0.005854166666666666,-0.9992162915511688
0.005875,-0.9969320215161925
0.005895833333333333,-0.9930557812979774
0.005916666666666666,-0.9876956224788583
0.0059375,-0.9807852786977096
0.005958333333333333,-0.9723627499533407
0.0059791666666666665,-0.9624675348640167
0.006,-0.951042478210569
0.006020833333333333,-0.9382033333279683
0.0060416666666666665,-0.9238727084325817
0.0060625,-0.9081431754091756
0.006083333333333333,-0.891013106833112
0.006104166666666667,-0.8724848374859838
0.006124999999999999,-0.8526527731245406
0.006145833333333333,-0.8314589598912511
0.006166666666666667,-0.8090229811396389
0.006187499999999999,-0.7853169295066615
0.006208333333333333,-0.7604003373805479
0.006229166666666667,-0.7343319276098659
0.0062499999999999995,-0.7070963051169776
0.006270833333333333,-0.6788094581871377
0.006291666666666667,-0.6494432334462282
0.0063124999999999995,-0.6190939503964122
0.006333333333333333,-0.5877896109341799
0.006354166666666667,-0.5555630942056895
0.006375,-0.5225063201461195
0.006395833333333333,-0.488614958192072
0.006416666666666667,-0.4539938718053043
0.0064375,-0.41865973680032753
0.006458333333333333,-0.38268058934371885
0.006479166666666666,-0.3461215128018069
0.0065,-0.30901239909920336
0.006520833333333333,-0.27144394689204376
0.006541666666666666,-0.23344362668161922
0.0065625,-0.1950903223606664
0.006583333333333333,-0.15643562938576924
0.006604166666666666,-0.11753588152276066
0.006625,-0.07846026464016509
0.0066458333333333335,-0.039259309022434644
0.006666666666666666,-2.266232454488265e-15
0.0066875,0.039259815689516635
0.0067083333333333335,0.07845851066471901
0.006729166666666666,0.11753891622370319
0.00675,0.15643213006912018
0.006770833333333333,0.19509284480210237
0.006791666666666666,0.23344362018652248
0.0068125,0.271440450347442
0.006833333333333333,0.3090193029967008
0.006854166666666666,0.34611257634520615
0.006875,0.3826891550544362
0.006895833333333333,0.41865431356433436
0.0069166666666666664,0.4539938970680481
0.0069375,0.48862124062592405
0.006958333333333333,0.522494653898659
0.0069791666666666665,0.5555774387367213
0.007,0.5877764460295398
0.007020833333333333,0.619101985043738
0.0070416666666666666,0.6494431792368901
0.007062499999999999,0.6788007467467704
0.007083333333333333,0.7071120836836743
0.007104166666666667,0.7343129674592175
0.007124999999999999,0.7604173794443271
0.007145833333333333,0.7853067184853776
0.007166666666666667,0.8090230711791049
0.0071874999999999994,0.8314696108110724
0.007208333333333333,0.8526337585263304
0.007229166666666667,0.8725073657883071
0.0072499999999999995,0.890993124898145
0.007270833333333333,0.9081550056482626
0.007291666666666667,0.9238725799012036
0.0073124999999999996,0.9381913376106634
0.007333333333333333,0.9510636749404586
0.007354166666666667,0.9624426830467345
0.007375,0.9723845707451687
0.007395833333333333,0.9807724781328665
0.007416666666666666,0.98769578737316
0.0074375,0.9930684551623997
0.007458333333333333,0.996909815777951
0.007479166666666666,0.999242093812586
0.0075,0.9999849050065109
0.007520833333333333,0.9992421038105521
0.007541666666666666,0.9969098032194569
0.0075625,0.993068458753078
0.007583333333333333,0.9876958029792818
0.007604166666666666,0.9807724397045832
0.007625,0.9723846259719706
0.0076458333333333335,0.9624426260765199
0.007666666666666666,0.9510637139294519
0.0076875,0.9381913342183641
0.007708333333333333,0.9238725390667578
0.007729166666666666,0.9081550858995422
0.00775,0.8909930236860877
0.007770833333333333,0.8725074603497115
0.007791666666666666,0.8526336993580513
0.0078125,0.8314696138175823
0.007833333333333333,0.8090231299118523
0.007854166666666666,0.7853066104595464
0.007875,0.760417509010902
0.007895833333333333,0.734312851752378
0.007916666666666666,0.7071121528343679
0.0079375,0.678800744292192
0.007958333333333333,0.6494431136442943
0.007979166666666666,0.6191021006579005
0.008,0.5877763124894361
0.008020833333333333,0.5555775536069049
0.008041666666666666,0.5224945879620461
0.0080625,0.4886212423928988
0.008083333333333333,0.45399395581378843
0.008104166666666666,0.4186542147856525
0.008125,0.3826892637349128
0.008145833333333333,0.34611248775482045
0.008166666666666666,0.3090193507699662
0.0081875,0.27144044936578554
0.008208333333333333,0.2334435833484918
0.008229166666666666,0.19509290042944838
0.00825,0.15643207675572876
0.008270833333333333,0.11753895209054584
0.008291666666666666,0.07845849630652965
0.0083125,0.039259815831512376
0.008333333333333333,6.123280786772624e-16
0.008354166666666666,-0.039259295896449865
0.008375,-0.07846029583672309
0.008395833333333333,-0.11753583987288134
0.008416666666666666,-0.15643566245750334
0.0084375,-0.195090321655004
0.008458333333333333,-0.23344357658095538
0.008479166666666666,-0.27144405100052243
0.008499999999999999,-0.3090122586716313
0.008520833333333333,-0.3461216524810723
0.008541666666666666,-0.3826804975687141
0.008562499999999999,-0.4186597383148372
0.008583333333333333,-0.45399398213614356
0.008604166666666666,-0.4886147467410132
0.008624999999999999,-0.5225065872771262
0.008645833333333333,-0.5555628426586394
0.008666666666666666,-0.5877897685975858
0.008687499999999999,-0.6190939481565757
0.008708333333333334,-0.6494430571611739
0.008729166666666666,-0.678809785345982
0.008749999999999999,-0.7070959034184264
0.008770833333333334,-0.7343322962330031
0.008791666666666666,-0.760400111806132
0.0088125,-0.7853169323482889
0.008833333333333334,-0.8090232237280023
0.008854166666666666,-0.8314585182245996
0.008875,-0.8526533059614317
0.008895833333333334,-0.8724843565525068
0.008916666666666666,-0.8910133964734327
0.0089375,-0.9081431721226116
0.008958333333333334,-0.9238724051440447
0.008979166666666667,-0.938203877870323
0.009,-0.9510418298062789
0.009020833333333334,-0.9624681127683241
0.009041666666666667,-0.9723624062241574
0.0090625,-0.9807852822477335
0.009083333333333334,-0.9876959747902976
0.009104166666666667,-0.9930551560082046
0.009125,-0.9969327578678548
0.009145833333333332,-0.9992156423636388
0.009166666666666667,-1.000007742481576
0.0091875,-0.9992290343555444
0.009208333333333332,-0.9969096134527798
0.009229166666666667,-0.9930817833720098
0.00925,-0.9876730299795629
0.009270833333333332,-0.9807984522442454
0.009291666666666667,-0.9723623774129856
0.0093125,-0.9624552382752414
0.009333333333333332,-0.9510638955396465
0.009354166666666667,-0.9381787217857335
0.009375,-0.9238938814635493
0.009395833333333332,-0.9081309541629502
0.009416666666666667,-0.8910134492745773
0.0094375,-0.8724960054162003
0.009458333333333332,-0.8526335360248962
0.009479166666666667,-0.8314808130102139
0.0095,-0.8090044052463952
0.009520833333333333,-0.7853275181322841
0.009541666666666667,-0.7604000442127895
0.0095625,-0.7343225108344021
0.009583333333333333,-0.7071122887188717
0.009604166666666667,-0.678791583846658
0.009625,-0.6494581738349229
0.009645833333333333,-0.6190855869415874
0.009666666666666667,-0.5877898382639396
0.0096875,-0.5555702319579793
0.009708333333333333,-0.5224944872345488
0.009729166666666665,-0.4886278490481647
0.00975,-0.4539834079745293
0.009770833333333333,-0.41866540344451025
0.009791666666666666,-0.38268044087132197
0.0098125,-0.3461170577410036
0.009833333333333333,-0.309019410531945
0.009854166666666666,-0.27143677214290435
0.009875,-0.23344901752488548
0.009895833333333333,-0.19508767668179966
0.009916666666666666,-0.1564356902705399
0.0099375,-0.11753739723179518
0.009958333333333333,-0.07845848108468657
0.009979166666666666,-0.039260348713204385
0.01,-7.347765570740186e-16
0.010020833333333333,0.03926034913173894
0.010041666666666666,0.07845848003159443
0.0100625,0.11753739768460533
0.010083333333333333,0.15643569290414489
0.010104166666666666,0.1950876685374597
0.010125,0.23344903165177583
0.010145833333333333,0.27143675502364084
0.010166666666666666,0.3090194240296894
0.0101875,0.3461170564075715
0.010208333333333333,0.38268042284969983
0.010229166666666666,0.41866544286313334
0.01025,0.45398335302790904
0.010270833333333333,0.4886279054724288
0.010291666666666666,0.522494448602157
0.0103125,0.5555702340983861
0.010333333333333333,0.5877898837297042
0.010354166666666666,0.6190854962049952
0.010374999999999999,0.649458291740718
0.010395833333333333,0.678791469885215
0.010416666666666666,0.7071123623972548
0.010437499999999999,0.7343225080051937
0.010458333333333333,0.7603999623852403
0.010479166666666666,0.7853276743905546
0.010499999999999999,0.8090042094095851
0.010520833333333333,0.8314809961819364
0.010541666666666666,0.8526334213809397
0.010562499999999999,0.8724960087779412
0.010583333333333333,0.8910135721186841
0.010604166666666666,0.9081307258658412
0.010624999999999999,0.9238941610211376
0.010645833333333334,0.9381784659276429
0.010666666666666666,0.9510640521978575
0.010687499999999999,0.9624552345665975
0.010708333333333334,0.972362213924555
0.010729166666666666,0.9807987502132173
0.01075,0.987672671331537
0.010770833333333334,0.9930821062518481
0.010791666666666666,0.9969094190687411
0.0108125,0.9992290382062108
0.010833333333333334,1.0000079408807578
0.010854166666666666,0.9992152864097557
0.010875,0.9969331802133072
0.010895833333333334,0.9930547810677933
0.010916666666666667,0.987696197269826
0.0109375,0.9807852784677704
0.010958333333333334,0.9723621838750324
0.010979166666666667,0.9624685060809962
0.011,0.9510413693139899
