Time (s),Amplitude
0.0,0.0
2.0833333333333333e-05,0.13055216698707534
4.1666666666666665e-05,0.2586467523407567
6.25e-05,0.382475429473849
8.333333333333333e-05,0.5001921404249253
0.00010416666666666666,0.6092133693682477
0.000125,0.7071067957602474
0.00014583333333333332,0.7927644099610007
0.00016666666666666666,0.8656926226185135
0.0001875,0.9243815632255701
0.00020833333333333332,0.9665686709810037
0.00022916666666666666,0.991247672160991
0.00025,0.9992315345793973
0.0002708333333333333,0.9912476721609911
0.00029166666666666664,0.966568670981004
0.0003125,0.9243815632255701
0.0003333333333333333,0.8656926226185135
0.00035416666666666664,0.7927644099610007
0.000375,0.7071067957602475
0.0003958333333333333,0.609213369368248
0.00041666666666666664,0.5001921404249257
0.0004375,0.38247542947384905
0.0004583333333333333,0.258646752340757
0.00047916666666666664,0.13055216698707572
0.0005,1.225588294419256e-16
0.0005208333333333333,-0.1305521602344473
0.0005416666666666666,-0.25864669325760653
0.0005625,-0.3824753641368933
0.0005833333333333333,-0.5001922841440218
0.0006041666666666667,-0.6092136738819108
0.000625,-0.7071067373952822
0.0006458333333333333,-0.7927638136180115
0.0006666666666666666,-0.8656923103646903
0.0006875,-0.924382252348794
0.0007083333333333333,-0.9665695348507175
0.0007291666666666666,-0.9912472880061737
0.00075,-0.9992302377754649
0.0007708333333333333,-0.9912473908359145
0.0007916666666666666,-0.966569976915837
0.0008125,-0.9243825685835553
0.0008333333333333333,-0.8656918113074924
0.0008541666666666666,-0.7927630180056646
0.000875,-0.7071068544066909
0.0008958333333333333,-0.6092145912677887
0.0009166666666666666,-0.5001926455725942
0.0009375,-0.3824747918721038
0.0009583333333333333,-0.25864622919507957
0.0009791666666666666,-0.13055226162836175
0.001,-2.451182956668079e-16
0.0010208333333333332,0.13055224123993608
0.0010416666666666667,0.2586460508034337
0.0010624999999999999,0.3824745945981748
0.0010833333333333333,0.5001930795086887
0.0011041666666666667,0.6092155106964867
0.001125,0.7071066781825013
0.0011458333333333333,0.7927612174437241
0.0011666666666666665,0.8656908685078598
0.0011875,0.9243846492852074
0.0012083333333333334,0.9665725852372483
0.0012291666666666666,0.9912462309346791
0.00125,0.9992263222647123
0.0012708333333333332,0.9912464385892455
0.0012916666666666667,0.9665734779444534
0.0013124999999999999,0.9243852878901969
0.0013333333333333333,0.8656898607092194
0.0013541666666666667,0.7927596107802416
0.001375,0.7071069144775474
0.0013958333333333333,0.6092173632743776
0.0014166666666666666,0.5001938093802558
0.0014375,0.3824734389572075
0.0014583333333333332,0.25864511366812526
0.0014791666666666666,0.13055244599776403
0.0015,3.6767937240312473e-16
0.0015208333333333332,-0.13055241157557582
0.0015416666666666667,-0.25864481248587
0.0015624999999999999,-0.3824731058957043
0.0015833333333333333,-0.5001945420048953
0.0016041666666666667,-0.6092189155675499
0.001625,-0.7071066169513246
0.0016458333333333333,-0.7927565708394111
0.0016666666666666666,-0.8656882689555997
0.0016875,-0.9243888008150869
0.0017083333333333332,-0.966577881667741
0.0017291666666666666,-0.9912444802689545
0.00175,-0.9992197115279797
0.0017708333333333332,-0.9912447968360305
0.0017916666666666667,-0.9665792425901785
0.0018124999999999999,-0.9243897743611051
0.0018333333333333333,-0.8656867325735871
0.0018541666666666665,-0.7927541214924844
0.001875,-0.7071069771856606
0.0018958333333333334,-0.6092217398205113
0.0019166666666666666,-0.5001956546912737
0.0019375,-0.3824713441121164
0.001958333333333333,-0.2586433838164222
0.0019791666666666664,-0.13055272373379717
0.002,-4.902430840679882e-16
0.0020208333333333332,0.13055267459282882
0.0020416666666666665,0.258642953849835
0.0020625,0.38247086863505386
0.0020833333333333333,0.5001967005865467
0.0021041666666666665,0.6092239558745549
0.0021249999999999997,0.7071065524310794
0.0021458333333333334,0.792749781651228
0.0021666666666666666,0.8656844601797767
0.0021874999999999998,0.9243947894731626
0.0022083333333333334,0.9665855294182781
0.0022291666666666666,0.9912420010679452
0.00225,0.9992102738464107
0.0022708333333333335,0.9912424329318321
0.0022916666666666667,0.9665873860024154
0.0023125,0.9243961175937846
0.002333333333333333,0.8656823642241674
0.0023541666666666667,0.7927464402157796
0.002375,0.7071070438764682
0.002395833333333333,0.6092278087846512
0.002416666666666667,0.5001982185346061
0.0024375,0.38246846514970545
0.002458333333333333,0.25864100481130686
0.0024791666666666664,0.13055310045630406
0.0025,6.128105413727165e-16
0.0025208333333333333,-0.13055303558976192
0.0025416666666666665,-0.25864043725116165
0.0025625,-0.3824678375156579
0.0025833333333333333,-0.5001995991326622
0.0026041666666666665,-0.6092307340097685
0.0026249999999999997,-0.7071064831828239
0.0026458333333333334,-0.7927407115205413
0.0026666666666666666,-0.8656793646186728
0.0026875,-0.9244027377274462
0.0027083333333333334,-0.9665956848427415
0.0027291666666666666,-0.9912387423480096
0.00275,-0.9991978156109161
0.002770833333333333,-0.9912392985195492
0.0027916666666666667,-0.9665980758267279
0.0028125,-0.9244044481335962
0.002833333333333333,-0.8656766653490384
0.0028541666666666667,-0.7927364082649924
0.002875,-0.7071071161034472
0.002895833333333333,-0.6092356960046149
0.0029166666666666664,-0.5002015540248506
0.0029375,-0.38246474213690873
0.002958333333333333,-0.25863792714318423
0.0029791666666666664,-0.130553584058287
0.003,-7.353829830771544e-16
0.0030208333333333333,0.13055350208438565
0.0030416666666666665,0.25863720989919875
0.0030624999999999997,0.3824639489762278
0.0030833333333333333,0.5002032987408429
0.0031041666666666665,0.6092393927252698
0.0031249999999999997,0.7071064075146369
0.0031458333333333334,0.792729168626102
0.0031666666666666666,0.8656728746127178
0.0031875,0.9244128144351698
0.0032083333333333334,0.9666085636118218
0.0032291666666666666,0.9912346343740078
0.00325,0.999182071070413
0.003270833333333333,0.991235326979166
0.0032916666666666667,0.9666115411259758
0.0033125,0.9244149444176248
0.003333333333333333,0.8656695131660679
0.0033541666666666668,0.7927238097103775
0.003375,0.7071071957244744
0.003395833333333333,0.6092455720419588
0.0034166666666666664,0.5002057332139082
0.0034375,0.38246009415491744
0.0034583333333333332,0.25863408394635923
0.0034791666666666664,0.1305541851364201
0.0035,8.579618273451142e-16
0.0035208333333333333,-0.13055408422127662
0.0035416666666666665,-0.258633200972412
0.0035624999999999997,-0.38245911772357577
0.0035833333333333333,-0.5002078810881797
0.0036041666666666665,-0.6092501229762332
0.0036249999999999998,-0.7071063233706792
0.0036458333333333334,-0.7927148970832039
0.0036666666666666666,-0.8656648464628894
0.0036875,-0.9244252442334797
0.003708333333333333,-0.9666244527012632
0.0037291666666666667,-0.9912295847418753
0.00375,-0.9991626874685169
0.003770833333333333,-0.991230429720554
0.0037916666666666667,-0.966628085272334
0.0038125,-0.9244278428118406
0.003833333333333333,-0.8656607454604144
0.0038541666666666663,-0.792708359149254
0.003875,-0.7071072850309046
0.003895833333333333,-0.6092576619036305
0.003916666666666666,-0.5002108511916274
0.0039375,-0.3824544146547096
0.003958333333333333,-0.2586293871632739
0.0039791666666666664,-0.13055491760607285
0.004,-9.805487374384998e-16
0.004020833333333333,0.13055479535422776
0.0040416666666666665,0.2586283174995788
0.0040625,0.38245323177516655
0.004083333333333333,0.5002134532208155
0.0041041666666666666,0.6092631751022723
0.004125,0.7071062281796587
0.004145833333333333,0.7926975618539565
0.004166666666666667,0.8656550919706011
0.0041875,0.9244403208879411
0.004208333333333333,0.9666437274344529
0.004229166666666667,0.9912234728206399
0.0042499999999999994,0.9991392039381465
0.004270833333333333,0.9912244909151692
0.004291666666666667,0.9666481042354265
0.0043124999999999995,0.9244434518505279
0.004333333333333333,0.8656501507173345
0.004354166666666667,0.792689684373163
0.0043749999999999995,0.7071073869269645
0.004395833333333333,0.6092722588124594
0.004416666666666667,0.500217031894924
0.0044375,0.3824475648820106
0.004458333333333333,0.25862372211407125
0.004479166666666667,0.1305557995713867
0.0045,4.6589653685882996e-15
0.004520833333333333,-0.13055565287101964
0.004541666666666667,-0.2586224385326568
0.0045625,-0.382446145445404
0.004583333333333333,-0.5002201543287882
0.004604166666666666,-0.6092788746439475
0.004625,-0.7071061186407576
0.004645833333333333,-0.7926767274030517
0.004666666666666666,-0.8656433664712141
0.0046875,-0.924458426175124
0.0047083333333333335,-0.9666668755904722
0.004729166666666666,-0.9912161418878558
0.00475,-0.999111021641198
0.0047708333333333335,-0.9912173600439932
0.004791666666666666,-0.9666721124636518
0.0048125,-0.9244621723872702
0.004833333333333334,-0.8656374541522235
0.004854166666666666,-0.7926673018297846
0.004875,-0.70710750518707
0.004895833333333333,-0.6092897437108665
0.004916666666666666,-0.5002244363345009
0.0049375,-0.38243936455945093
0.004958333333333333,-0.2586169398012693
0.0049791666666666665,-0.13055685455961213
0.005,-1.2257551859675114e-15
0.005020833333333333,0.13055667936218798
0.0050416666666666665,0.25861540687814727
0.0050625,0.38243766939399637
0.005083333333333333,0.500228165368303
0.005104166666666667,0.6092976448033894
0.005125,0.7071059904120842
0.005145833333333333,0.7926518273615053
0.005166666666666667,0.8656293518298515
0.005187499999999999,0.9244800567464457
0.005208333333333333,0.9666945316993903
0.005229166666666667,0.9912073879225248
0.0052499999999999995,0.9990773612473328
0.005270833333333333,0.9912088412950739
0.005291666666666667,0.9667007797790327
0.0053124999999999995,0.9244845263181503
0.005333333333333333,0.8656222977691792
0.005354166666666667,0.7926405816042436
0.005375,0.7071076448357713
0.005395833333333333,0.6093106131280601
0.005416666666666667,0.5002332743458374
0.0054375,0.3824295785554837
0.005458333333333333,0.25860884590100763
0.005479166666666667,0.13055811329086425
0.0055,4.904439963620692e-15
0.005520833333333333,-0.13055790429346445
0.005541666666666666,-0.2586070172360934
0.0055625,-0.3824275563523523
0.005583333333333333,-0.5002377228880597
0.005604166666666666,-0.6093200387082927
0.005625,-0.7071058376441297
0.005645833333333333,-0.7926221208847238
0.005666666666666666,-0.8656126319877119
0.0056875,-0.9245058628378225
0.0057083333333333335,-0.9667275264540716
0.005729166666666666,-0.9911969434134128
0.00575,-0.9990372015712161
0.0057708333333333335,-0.9911986782836829
0.005791666666666666,-0.9667349847092606
0.0058125,-0.9245111980954004
0.005833333333333333,-0.8656042114770738
0.005854166666666666,-0.7926086967148025
0.005875,-0.7071078127247326
0.005895833333333333,-0.609335519600444
0.005916666666666666,-0.500243821626595
0.0059375,-0.38241789751111277
0.005958333333333333,-0.25859918476726107
0.0059791666666666665,-0.13055961625797657
0.006,-1.4710247527070215e-15
0.006020833333333333,0.13055936643647395
0.0060416666666666665,0.25859699890011956
0.0060625,0.38241548030846634
0.006083333333333333,0.5002491392423074
0.006104166666666667,0.6093467865607181
0.006124999999999999,0.7071056522607123
0.006145833333333333,0.7925866287489677
0.006166666666666667,0.8655926571723426
0.006187499999999999,0.9245367050738934
0.006208333333333333,0.9667669592068298
0.006229166666666667,0.9911844535165009
0.0062499999999999995,0.9989891893497872
0.006270833333333333,0.9911865316259347
0.006291666666666667,0.9667758930730626
0.0063124999999999995,0.9245430958864941
0.006333333333333333,0.8655825704180844
0.006354166666666667,0.7925705482390227
0.006375,0.7071080184358618
0.006395833333333333,0.6093653314929866
0.006416666666666667,0.5002564449382156
0.0064375,0.38240390909843064
0.006458333333333333,0.25858761570541483
0.006479166666666666,0.13056141756851564
0.0065,5.1500963535528115e-15
0.006520833333333333,-0.13056111747577084
0.006541666666666666,-0.2585849899737415
0.0065625,-0.3824010054907722
0.006583333333333333,-0.5002628328031605
0.006604166666666666,-0.609378866074204
0.006625,-0.7071054228154805
0.0066458333333333335,-0.7925440376470367
0.006666666666666666,-0.8655686903287897
0.0066875,-0.9245737397678675
0.0067083333333333335,-0.9668143068110948
0.006729166666666666,-0.9911694400998197
0.00675,-0.9989315034339519
0.006770833333333333,-0.9911719452545108
0.006791666666666666,-0.966825076585323
0.0068125,-0.9245814438570118
0.006833333333333333,-0.8655565303615551
0.006854166666666666,-0.7925246520147752
0.006875,-0.7071082757417866
0.006895833333333333,-0.6094012237675999
0.0069166666666666664,-0.5002716403204329
0.0069375,-0.38238705428253844
0.006958333333333333,-0.25857367687434
0.0069791666666666665,-0.13056359081872237
0.007,-1.7163944130318353e-15
0.007020833333333333,0.13056322749909235
0.0070416666666666666,0.25857049791575176
0.007062499999999999,0.38238353891887716
0.007083333333333333,0.5002793743523015
0.007104166666666667,0.6094176105667984
0.007124999999999999,0.7071051326091907
0.007145833333333333,0.7924925528828671
0.007166666666666667,0.8655397247260398
0.0071874999999999994,0.9246185506334813
0.007208333333333333,0.9668715916425079
0.007229166666666667,0.991151245943321
0.0072499999999999995,0.9988616444822003
0.007270833333333333,0.9911542943929793
0.007291666666666667,0.9668846971064873
0.0073124999999999996,0.924627925489063
0.007333333333333333,0.8655249269604255
0.007354166666666667,0.7924689620835895
0.007375,0.7071086050569806
0.007395833333333333,0.6094448198891949
0.007416666666666666,0.5002900927893263
0.0074375,0.38236655870283603
0.007458333333333333,0.2585567286692067
0.007479166666666666,0.13056623835982747
0.0075,5.396037750599815e-15
0.007520833333333333,-0.130565793613357
0.007541666666666666,-0.25855283723190653
0.0075625,-0.38236225549285846
0.007583333333333333,-0.5002995606468993
0.007604166666666666,-0.6094648802472847
0.007625,-0.7071047564643681
0.0076458333333333335,-0.7924296641210775
0.007666666666666666,-0.8655043530417049
0.0076875,-0.9246733590376222
0.007708333333333333,-0.9669416497325822
0.007729166666666666,-0.9911289451280919
0.00775,-0.9987760980964097
0.007770833333333333,-0.9911327024824135
0.007791666666666666,-0.9669578028845247
0.0078125,-0.9246849139359602
0.007833333333333333,-0.8654861130433762
0.007854166666666666,-0.7924005857610529
0.007875,-0.7071090377312095
0.007895833333333333,-0.6094984217221658
0.007916666666666666,-0.5003127729629061
0.0079375,-0.3823413210433011
0.007958333333333333,-0.2585358616459091
0.007979166666666666,-0.13056950647160112
0.008,-1.9619313253574866e-15
0.008020833333333333,0.13056895396542514
0.008041666666666666,0.2585310273113949
0.0080625,0.3823359752110706
0.008083333333333333,0.5003245356352056
0.008104166666666666,0.6095233442070442
0.008125,0.7071042549378874
0.008145833333333333,0.7923517581034584
0.008166666666666666,0.8654605511397994
0.0081875,0.9247413731929321
0.008208333333333333,0.9670285759346625
0.008229166666666666,0.9911011931389219
0.00825,0.998669773054135
0.008270833333333333,0.9911059031668212
0.008291666666666666,0.9670488248138689
0.0083125,0.9247558577529377
0.008333333333333333,0.8654376845801691
0.008354166666666666,0.7923153041994724
0.008375,0.707109623958344
0.008395833333333333,0.6095653981619192
0.008416666666666666,0.5003411002217427
0.0084375,0.3823097233826982
0.008458333333333333,0.2585097401523981
0.008479166666666666,0.13057361134424636
0.008499999999999999,1.2757792967465742e-14
0.008520833333333333,-0.1305729115703017
0.008541666666666666,-0.25850361721043497
0.008562499999999999,-0.38230295268500664
0.008583333333333333,-0.5003559995803036
0.008604166666666666,-0.6095969664242076
0.008624999999999999,-0.7071035633493609
0.008645833333333333,-0.7922534477675194
0.008666666666666666,-0.8654053039737909
0.008687499999999999,-0.9248273963873209
0.008708333333333334,-0.9671384989919953
0.008729166666666666,-0.9910659635059268
0.008749999999999999,-0.9985350179501152
0.008770833333333334,-0.9910719998148791
0.008791666666666666,-0.9671644498855979
0.0088125,-0.9248459594772763
0.008833333333333334,-0.8653759952073291
0.008854166666666666,-0.7922067239742366
0.008875,-0.7071104482516809
0.008895833333333334,-0.6096508767421318
0.008916666666666666,-0.5003772326737017
0.0089375,-0.38226929163848744
0.008958333333333334,-0.25847632249167374
0.008979166666666667,-0.1305788860433551
0.009,-9.324189481905834e-15
0.009020833333333334,0.1305779769887867
0.009041666666666667,0.258468368294386
0.0090625,0.38226049610910057
0.009083333333333334,0.5003965905792647
0.009104166666666667,0.6096918913221293
0.009125,0.7071025695474976
0.009145833333333332,0.7921263421506773
0.009166666666666667,0.8653339207029381
0.0091875,0.9249389497574712
0.009208333333333332,0.9672810115468635
0.009229166666666667,0.9910200564731436
0.00925,0.998359794816155
0.009270833333333332,0.9910280214495053
0.009291666666666667,0.9673152544238448
0.0093125,0.9249634437106338
0.009333333333333332,0.8652952411119106
0.009354166666666667,0.7920646800193764
0.009375,0.7071116620518042
0.009395833333333332,0.6097630546505528
0.009416666666666667,0.5004246158747717
0.0094375,0.38221604702535367
0.009458333333333332,0.25843232675182726
0.009479166666666667,0.13058587127984173
0.0095,5.889824643217202e-15
0.009520833333333333,-0.1305846498682243
0.009541666666666667,-0.25842163929210393
0.0095625,-0.38220422944321386
0.009583333333333333,-0.5004506305483086
0.009604166666666667,-0.6098181726544166
0.009625,-0.7071010649664862
0.009645833333333333,-0.7919566259220321
0.009666666666666667,-0.8652386896460844
0.0096875,-0.9250885004314792
0.009708333333333333,-0.9674720061434291
0.009729166666666665,-0.9909581108772433
0.00975,-0.998124026551169
0.009770833333333333,-0.9909690412080469
0.009791666666666666,-0.9675189984347663
0.0098125,-0.9251221129360284
0.009833333333333333,-0.865185596215493
0.009854166666666666,-0.7918719867441097
0.009875,-0.7071135591468849
0.009895833333333333,-0.6099158895619569
0.009916666666666666,-0.5004891065822239
0.0099375,-0.3821431620367635
0.009958333333333333,-0.2583721246237601
0.009979166666666666,-0.1305955063823482
0.01,-2.4542579044761717e-15
0.010020833333333333,0.13059378797276117
0.010041666666666666,0.25835708805403623
0.0100625,0.38212653615963643
0.010083333333333333,0.5005257185784799
0.010104166666666666,0.6099934590369344
0.010125,0.7070986248504224
0.010145833333333333,0.7917198467422956
0.010166666666666666,0.865105989009288
0.0101875,0.9252983133098924
0.010208333333333333,0.9677398454233592
0.010229166666666666,0.9908704149730102
0.01025,0.9977915626086484
0.010270833333333333,0.9908862563865802
0.010291666666666666,0.9678079536868139
0.0103125,0.9253470269025854
0.010333333333333333,0.8650290078777085
0.010354166666666666,0.791597129673894
0.010374999999999999,0.7071167726531666
0.010395833333333333,0.6101352244118494
0.010416666666666666,0.5005815229929721
0.010437499999999999,0.3820378618037331
0.010458333333333333,0.2582851935733194
0.010479166666666666,0.13060957849241395
0.010499999999999999,1.3262061398880264e-14
0.010520833333333333,-0.13060699691746705
0.010541666666666666,-0.2582626031895039
0.010562499999999999,-0.38201288554071894
0.010583333333333333,-0.5006365563326612
0.010604166666666666,-0.6102518194327198
0.010624999999999999,-0.7070942707193021
0.010645833333333334,-0.7913682593244327
0.010666666666666666,-0.8649092966619769
0.010687499999999999,-0.925612409473828
0.010708333333333334,-0.9681405527839646
0.010729166666666666,-0.9907373823031698
0.01075,-0.9972900995476089
0.010770833333333334,-0.990762256801079
0.010791666666666666,-0.9682475034127628
0.0108125,-0.9256888968272621
0.010833333333333334,-0.8647883255401415
0.010854166666666666,-0.7911754251218005
0.010875,-0.7071228825139478
0.010895833333333334,-0.6104748384759193
0.010916666666666667,-0.5007242996413016
0.0109375,-0.38187315621057594
0.010958333333333334,-0.2581493278521051
0.010979166666666667,-0.13063195524405957
