Time (s),Amplitude
0.0,0.0
2.0833333333333333e-05,0.010414188250102428
4.1666666666666665e-05,0.020813513641294898
6.25e-05,0.031183151492013027
8.333333333333333e-05,0.041508353358655395
0.00010416666666666666,0.05177448486313298
0.000125,0.061967063171787004
0.00014583333333333332,0.0720717940112712
0.00016666666666666666,0.08207460810853626
0.0001875,0.09196169694396858
0.00020833333333333332,0.10171954770902118
0.00022916666666666666,0.11133497736231736
0.00025,0.12079516568120481
0.0002708333333333333,0.1300876872090731
0.00029166666666666664,0.1392005420024121
0.0003125,0.14812218508557268
0.0003333333333333333,0.15684155452547013
0.00035416666666666664,0.16534809804304712
0.000375,0.17363179808314963
0.0003958333333333333,0.18168319526957008
0.00041666666666666664,0.18949341017734295
0.0004375,0.19705416335993092
0.0004583333333333333,0.2043577935746879
0.00047916666666666664,0.21139727415591764
0.0005,0.21816622749092998
0.0005208333333333333,0.2246589375607244
0.0005416666666666666,0.23087036051326867
0.0005625,0.23679613324377494
0.0005833333333333333,0.24243257996287967
0.0006041666666666667,0.24777671674018742
0.000625,0.2528262540172191
0.0006458333333333333,0.25757959709038974
0.0006666666666666666,0.2620358445712008
0.0006875,0.2661947848373625
0.0007083333333333333,0.2700568904950136
0.0007291666666666666,0.2736233108785833
0.00075,0.27689586262110316
0.0007708333333333333,0.2798770183339168
0.0007916666666666666,0.2825698934407157
0.0008125,0.28497823121665256
0.0008333333333333333,0.2871063860889069
0.0008541666666666666,0.2889593052604952
0.000875,0.29054250872431536
0.0008958333333333333,0.29186206773935375
0.0009166666666666666,0.2929245818456819
0.0009375,0.29373715449927146
0.0009583333333333333,0.2943073674117875
0.0009791666666666666,0.29464325368433014
0.001,0.2947532698276072
0.0010208333333333332,0.29464626676418554
0.0010416666666666667,0.29433145991132037
0.0010624999999999999,0.2938183984453477
0.0010833333333333333,0.2931169338507704
0.0011041666666666667,0.29223718785895486
0.001125,0.2911895198827641
0.0011458333333333333,0.28998449405452026
0.0011666666666666665,0.28863284597535793
0.0011875,0.28714544928435
0.0012083333333333334,0.2855332821557289
0.0012291666666666666,0.2838073938320943
0.00125,0.2819788713007136
0.0012708333333333332,0.28005880621886386
0.0012916666666666667,0.2780582621926535
0.0013124999999999999,0.2759882425119091
0.0013333333333333333,0.2738596584415111
0.0013541666666666667,0.27168329816702896
0.001375,0.26946979648966246
0.0013958333333333333,0.26722960536232293
0.0014166666666666666,0.26497296535523945
0.0014375,0.2627098781357238
0.0014583333333333332,0.2604500800427211
0.0014791666666666666,0.25820301683249713
0.0015,0.2559778196673223
0.0015208333333333332,0.25378328241426995
0.0015416666666666667,0.2516278403163295
0.0015624999999999999,0.24951955009291527
0.0015833333333333333,0.24746607152157143
0.0016041666666666667,0.2454746505472489
0.001625,0.2435521039599769
0.0016458333333333333,0.24170480567608502
0.0016666666666666666,0.23993867465240018
0.0016875,0.23825916445701795
0.0017083333333333332,0.23667125451440155
0.0017291666666666666,0.23517944303667962
0.00175,0.23378774164714147
0.0017708333333333332,0.23249967169605462
0.0017916666666666667,0.23131826226312235
0.0018124999999999999,0.2302460498351249
0.0018333333333333333,0.22928507964161396
0.0018541666666666665,0.22843690862594596
0.001875,0.2277026100234747
0.0018958333333333334,0.22708277951340192
0.0019166666666666666,0.226577542905616
0.0019375,0.22618656531884992
0.001958333333333333,0.22590906180169104
0.0019791666666666664,0.22574380934337035
0.002,0.22568916021688812
0.0020208333333333332,0.22574305659289087
0.0020416666666666665,0.2259030463588234
0.0020625,0.2261663000742464
0.0020833333333333333,0.22652962898986706
0.0021041666666666665,0.22698950405474114
0.0021249999999999997,0.2275420758333407
0.0021458333333333334,0.22818319525169445
0.0021666666666666666,0.22890843508963932
0.0021874999999999998,0.22971311213437073
0.0022083333333333334,0.23059230990893392
0.0022291666666666666,0.2315409018880866
0.00225,0.23255357511307426
0.0022708333333333335,0.23362485411628706
0.0022916666666666667,0.23474912506653275
0.0023125,0.2359206600457386
0.002333333333333333,0.23713364136830178
0.0023541666666666667,0.23838218585502807
0.002375,0.23966036897463755
0.002395833333333333,0.24096224876715241
0.002416666666666667,0.24228188946512702
0.0024375,0.24361338473061628
0.002458333333333333,0.2449508804279889
0.0024791666666666664,0.24628859685518814
0.0025,0.247620850358787
0.0025208333333333333,0.24894207426118992
0.0025416666666666665,0.2502468390315691
0.0025625,0.2515298716355799
0.0025833333333333333,0.25278607400257735
0.0026041666666666665,0.2540105405529082
0.0026249999999999997,0.25519857473190516
0.0026458333333333334,0.2563457045014031
0.0026666666666666666,0.25744769674395385
0.0026875,0.2585005705393885
0.0027083333333333334,0.25950060927796
0.0027291666666666666,0.26044437157898753
0.00275,0.2613287009886698
0.002770833333333333,0.26215073443555037
0.0027916666666666667,0.2629079094269646
0.0028125,0.26359796997466794
0.002833333333333333,0.2642189712427146
0.0028541666666666667,0.2647692829155104
0.002875,0.26524759128877884
0.002895833333333333,0.26565290009095216
0.0029166666666666664,0.26598453004718786
0.0029375,0.2662421172028252
0.002958333333333333,0.2664256100276031
0.0029791666666666664,0.2665352653263394
0.003,0.26657164298603225
0.0030208333333333333,0.2665355995934367
0.0030416666666666665,0.266428280961107
0.0030624999999999997,0.2662511136036552
0.0030833333333333333,0.2660057952095418
0.0031041666666666665,0.26569428415707214
0.0031249999999999997,0.2653187881264353
0.0031458333333333334,0.26488175186252794
0.0031666666666666666,0.26438584414601507
0.0031875,0.26383394403251526
0.0032083333333333334,0.26322912642200413
0.0032291666666666666,0.2625746470224706
0.00325,0.2618739267735405
0.003270833333333333,0.26113053579720374
0.0032916666666666667,0.2603481769439183
0.0033125,0.25953066900324934
0.003333333333333333,0.2586819296487991
0.0033541666666666668,0.2578059581875099
0.003375,0.2569068181834875
0.003395833333333333,0.2559886200262732
0.0034166666666666664,0.25505550351301476
0.0034375,0.2541116205132438
0.0034583333333333332,0.2531611177839673
0.0034791666666666664,0.25220812000151643
0.0035,0.25125671307511543
0.0035208333333333333,0.2503109278053704
0.0035416666666666665,0.2493747239489331
0.0035624999999999997,0.24845197474838898
0.0035833333333333333,0.24754645198403125
0.0036041666666666665,0.24666181160158268
0.0036249999999999998,0.2458015799671393
0.0036458333333333334,0.24496914079765258
0.0036666666666666666,0.2441677228121456
0.0036875,0.24340038814558113
0.003708333333333333,0.2426700215638993
0.0037291666666666667,0.24197932051520815
0.00375,0.24133078604848013
0.003770833333333333,0.24072671462737827
0.0037916666666666667,0.24016919086303723
0.0038125,0.2396600811857557
0.003833333333333333,0.23920102847165392
0.0038541666666666663,0.2387934476364078
0.003875,0.2384385222042219
0.003895833333333333,0.23813720185624862
0.003916666666666666,0.23789020095873026
0.0039375,0.2376979980672412
0.003958333333333333,0.23756083639954184
0.0039791666666666664,0.2374787252657781
0.004,0.2374514424410335
0.004020833333333333,0.2374785374616162
0.0040416666666666665,0.23755933582294506
0.0040625,0.2376929440534894
0.004083333333333333,0.23787825563594545
0.0041041666666666666,0.23811395774369165
0.004125,0.23839853875759137
0.004145833333333333,0.2387302965253857
0.004166666666666667,0.23910734732327857
0.0041875,0.23952763547685035
0.004208333333333333,0.23998894359616543
0.004229166666666667,0.24048890337786452
0.0042499999999999994,0.2410250069251603
0.004270833333333333,0.24159461853500264
0.004291666666666667,0.2421949869002306
0.0043124999999999995,0.24282325767330684
0.004333333333333333,0.24347648633723545
0.004354166666666667,0.24415165132847955
0.0043749999999999995,0.24484566735615956
0.004395833333333333,0.2455553988614807
0.004416666666666667,0.2462776735612563
0.0044375,0.2470092960195158
0.004458333333333333,0.24774706119154782
0.004479166666666667,0.24848776788530558
0.0045,0.2492282320858874
0.004520833333333333,0.2499653000898191
0.004541666666666667,0.2506958613970669
0.0045625,0.251416861310126
0.004583333333333333,0.2521253131911266
0.004604166666666666,0.2528183103296988
0.004625,0.2534930373762832
0.004645833333333333,0.2541467812977301
0.004666666666666666,0.2547769418142962
0.0046875,0.25538104127960304
0.0047083333333333335,0.25595673396768304
0.004729166666666666,0.25650181473394323
0.00475,0.2570142270196879
0.0047708333333333335,0.2574920701727536
0.004791666666666666,0.25793360605981286
0.0048125,0.25833726494898446
0.004833333333333334,0.25870165064452566
0.004854166666666666,0.2590255448585776
0.004875,0.2593079108081651
0.004895833333333333,0.25954789602890144
0.004916666666666666,0.25974483440011903
0.0049375,0.25989824737940387
0.004958333333333333,0.2600078444477555
0.0049791666666666665,0.26007352276981954
0.005,0.26009536607680456
0.005020833333333333,0.2600736427828261
0.0050416666666666665,0.26000880334846765
0.0050625,0.25990147690833104
0.005083333333333333,0.25975246718223377
0.005104166666666667,0.25956274769249543
0.005125,0.2593334563124368
0.005145833333333333,0.25906588917375883
0.005166666666666667,0.2587614939629029
0.005187499999999999,0.25842186263876915
0.005208333333333333,0.2580487236063052
0.005229166666666667,0.2576439333824638
0.0052499999999999995,0.25720946779283427
0.005270833333333333,0.25674741273890334
0.005291666666666667,0.2562599545773852
0.0053124999999999995,0.2557493701543299
0.005333333333333333,0.25521801653785386
0.005354166666666667,0.2546683204942441
0.005375,0.2541027677529267
0.005395833333333333,0.253523892106331
0.005416666666666667,0.2529342643910345
0.0054375,0.25233648139673004
0.005458333333333333,0.2517331547495224
0.005479166666666667,0.2511268998158428
0.0055,0.2505203246728536
0.005520833333333333,0.24991601919062192
0.005541666666666666,0.24931654427056568
0.0055625,0.24872442128371136
0.005583333333333333,0.24814212175119
0.005604166666666666,0.24757205730809034
0.005625,0.24701656999034222
0.005645833333333333,0.24647792288269751
0.005666666666666666,0.24595829116411833
0.0056875,0.24545975358499397
0.0057083333333333335,0.24498428440859757
0.005729166666666666,0.24453374584703794
0.00575,0.24410988101973058
0.0057708333333333335,0.24371430746005282
0.005791666666666666,0.24334851119340795
0.0058125,0.24301384140741195
0.005833333333333333,0.24271150573231606
0.005854166666666666,0.24244256614714413
0.005875,0.24220793552432462
0.005895833333333333,0.24200837482286922
0.005916666666666666,0.24184449093740035
0.0059375,0.24171673520756443
0.005958333333333333,0.24162540258960233
0.0059791666666666665,0.2415706314890914
0.006,0.241552404251143
0.006020833333333333,0.241570548301637
0.0060416666666666665,0.2416247379304125
0.0060625,0.24171449670473982
0.006083333333333333,0.24183920049884938
0.006104166666666667,0.24199808112283916
0.006124999999999999,0.2421902305318861
0.006145833333333333,0.2424146055944231
0.006166666666666667,0.24267003339573542
0.006187499999999999,0.24295521705137
0.006208333333333333,0.24326874200279452
0.006229166666666667,0.24360908276590884
0.0062499999999999995,0.2439746101013191
0.006270833333333333,0.24436359857372528
0.006291666666666667,0.2447742344663597
0.0063124999999999995,0.2452046240151532
0.006333333333333333,0.2456528019261871
0.006354166666666667,0.24611674013905027
0.006375,0.2465943567979156
0.006395833333333333,0.24708352539152711
0.006416666666666667,0.24758208402282608
0.0064375,0.24808784476863982
0.006458333333333333,0.24859860308972828
0.006479166666666666,0.24911214725151032
0.0065,0.2496262677159941
0.006520833333333333,0.2501387664657891
0.006541666666666666,0.2506474662215957
0.0065625,0.2511502195152502
0.006583333333333333,0.2516449175812243
0.006604166666666666,0.25212949903045917
0.006625,0.25260195827154075
0.0066458333333333335,0.25306035364547586
0.006666666666666666,0.2535028152417295
0.0066875,0.2539275523646967
0.0067083333333333335,0.2543328606214308
0.006729166666666666,0.2547171286031919
0.00675,0.2550788441352362
0.006770833333333333,0.2554166000712258
0.006791666666666666,0.25572909961066104
0.0068125,0.2560151611198677
0.006833333333333333,0.2562737224392479
0.006854166666666666,0.25650384466175086
0.006875,0.2567047153698113
0.006895833333333333,0.2568756513203438
0.0069166666666666664,0.25701610056973573
0.0069375,0.2571256440331792
0.006958333333333333,0.2572039964750663
0.0069791666666666665,0.2572510069295752
0.007,0.2572666585529538
0.007020833333333333,0.257251067911385
0.0070416666666666666,0.2572044837106413
0.007062499999999999,0.2571272849760449
0.007083333333333333,0.2570199786934982
0.007104166666666667,0.2568831969245401
0.007124999999999999,0.25671769341051354
0.007145833333333333,0.25652433968298316
0.007166666666666667,0.2563041206995115
0.0071874999999999994,0.25605813002578137
0.007208333333333333,0.2557875645868385
0.007229166666666667,0.25549371901190304
0.0072499999999999995,0.2551779795987669
0.007270833333333333,0.2548418179252475
0.007291666666666667,0.2544867841364875
0.0073124999999999996,0.25411449993810525
0.007333333333333333,0.2537266513262565
0.007354166666666667,0.2533249810866091
0.007375,0.2529112810950284
0.007395833333333333,0.2524873844534199
0.007416666666666666,0.2520551574946999
0.0074375,0.2516164916912106
0.007458333333333333,0.25117329550114464
0.007479166666666666,0.250727486187598
0.0075,0.2502809816448113
0.007520833333333333,0.2498356922659516
0.007541666666666666,0.2493935128864191
0.0075625,0.24895631483618166
0.007583333333333333,0.2485259381339974
0.007604166666666666,0.24810418385562324
0.007625,0.2476928067072121
0.0076458333333333335,0.24729350783407755
0.007666666666666666,0.24690792789385402
0.0076875,0.2465376404218365
0.007708333333333333,0.24618414551489967
0.007729166666666666,0.24584886385893362
0.00775,0.24553313112316014
0.007770833333333333,0.2452381927430327
0.007791666666666666,0.24496519911168876
0.0078125,0.2447152011980956
0.007833333333333333,0.2444891466081596
0.007854166666666666,0.2442878761031167
0.007875,0.24411212058753556
0.007895833333333333,0.24396249857722901
0.007916666666666666,0.24383951415530272
0.0079375,0.24374355542247594
0.007958333333333333,0.24367489344570906
0.007979166666666666,0.24363368170704963
0.008,0.2436199560525078
0.008020833333333333,0.2436336351386644
0.008041666666666666,0.24367452137263887
0.0080625,0.24374230233899072
0.008083333333333333,0.24383655270511476
0.008104166666666666,0.24395673659472084
0.008125,0.24410221041706756
0.008145833333333333,0.2442722261377739
0.008166666666666666,0.24446593497523264
0.0081875,0.24468239150494853
0.008208333333333333,0.24492055815248726
0.008229166666666666,0.2451793100541838
0.00825,0.24545744026331587
0.008270833333333333,0.2457536652780886
0.008291666666666666,0.24606663086655964
0.0083125,0.2463949181624798
0.008333333333333333,0.2467370500050243
0.008354166666666666,0.2470914974944879
0.008375,0.24745668673523918
0.008395833333333333,0.24783100573657887
0.008416666666666666,0.24821281144162413
0.0084375,0.24860043685393535
0.008458333333333333,0.2489921982313429
0.008479166666666666,0.24938640231628198
0.008499999999999999,0.2497813535719429
0.008520833333333333,0.2501753613936532
0.008541666666666666,0.25056674726516553
0.008562499999999999,0.2509538518298864
0.008583333333333333,0.2513350418475893
0.008604166666666666,0.25170871700776815
0.008624999999999999,0.25207331657151855
0.008645833333333333,0.25242732581470134
0.008666666666666666,0.2527692822460889
0.008687499999999999,0.25309778157527113
0.008708333333333334,0.253411483406269
0.008729166666666666,0.253709116634061
0.008749999999999999,0.2539894845225905
0.008770833333333334,0.2542514694442625
0.008791666666666666,0.2544940372624433
0.0088125,0.2547162413400782
0.008833333333333334,0.2549172261591922
0.008854166666666666,0.25509623053773256
0.008875,0.255252590431993
0.008895833333333334,0.2553857413146391
0.008916666666666666,0.25549522012019876
0.0089375,0.2555806667517394
0.008958333333333334,0.25564182514432665
0.008979166666666667,0.25567854388275696
0.009,0.2556907763729377
0.009020833333333334,0.25567858056817744
0.009041666666666667,0.2556421182535248
0.0090625,0.25558165389313386
0.009083333333333334,0.25549755304746696
0.009104166666666667,0.25539028036892164
0.009125,0.2552603971862162
0.009145833333333332,0.2551085586895509
0.009166666666666667,0.2549355107302022
0.0091875,0.2547420862497664
0.009208333333333332,0.25452920135577656
0.009229166666666667,0.254297851061821
0.00925,0.25404910471165226
0.009270833333333332,0.25378410110799726
0.009291666666666667,0.2535040433679647
0.0093125,0.2532101935279858
0.009333333333333332,0.2529038669221944
0.009354166666666667,0.2525864263590026
0.009375,0.2522592761213801
0.009395833333333332,0.2519238558169741
0.009416666666666667,0.2515816341047368
0.0094375,0.2512341023251343
0.009458333333333332,0.2508827680613048
0.009479166666666667,0.25052914865870474
0.0095,0.250174764730854
0.009520833333333333,0.24982113367872488
0.009541666666666667,0.24946976325114528
0.0095625,0.24912214517331177
0.009583333333333333,0.24877974887009544
0.009604166666666667,0.24844401531031682
0.009625,0.24811635099755416
0.009645833333333333,0.24779812213231078
0.009666666666666667,0.2474906489695556
0.0096875,0.24719520039471668
0.009708333333333333,0.24691298874019751
0.009729166666666665,0.24664516486337235
0.00975,0.24639281350583397
0.009770833333333333,0.24615694895239246
0.009791666666666666,0.2459385110069845
0.0098125,0.24573836130124524
0.009833333333333333,0.24555727995002075
0.009854166666666666,0.24539596256657953
0.009875,0.24525501764871022
0.009895833333333333,0.2451349643452728
0.009916666666666666,0.24503623061113533
0.0099375,0.2449591517567451
0.009958333333333333,0.24490396939689496
0.009979166666666666,0.24487083080153754
0.01,0.24485978864978844
0.010020833333333333,0.24487080118655524
0.010041666666666666,0.2449037327795221
0.0100625,0.24495835487253678
0.010083333333333333,0.2450343473297939
0.010104166666666666,0.24513130016356638
0.010125,0.24524871563665177
0.010145833333333333,0.24538601072914631
0.010166666666666666,0.24554251995765727
0.0101875,0.24571749853362837
0.010208333333333333,0.24591012584605657
0.010229166666666666,0.24611950925257747
0.01025,0.24634468816164368
0.010270833333333333,0.2465846383873609
0.010291666666666666,0.2468382767574648
0.0103125,0.2471044659539221
0.010333333333333333,0.24738201956473152
0.010354166666666666,0.24766970732470353
0.010374999999999999,0.24796626052225987
0.010395833333333333,0.24827037754869935
0.010416666666666666,0.24858072956585303
0.010437499999999999,0.2488959662676411
0.010458333333333333,0.24921472171074774
0.010479166666666666,0.24953562018942335
0.010499999999999999,0.2498572821293306
0.010520833333333333,0.2501783299753756
0.010541666666666666,0.25049739404856886
0.010562499999999999,0.250813118347201
0.010583333333333333,0.2511241662679349
0.010604166666666666,0.2514292262228494
0.010624999999999999,0.25172701712900847
0.010645833333333334,0.25201629374773804
0.010666666666666666,0.25229585185153325
0.010687499999999999,0.25256453319731487
0.010708333333333334,0.2528212302856661
0.010729166666666666,0.253064890886648
0.01075,0.2532945223138643
0.010770833333333334,0.2535091954295723
0.010791666666666666,0.2537080483648403
0.0108125,0.2538902899400195
0.010833333333333334,0.25405520277211796
0.010854166666666666,0.2542021460570419
0.010875,0.25433055801608945
0.010895833333333334,0.2544399579975402
0.010916666666666667,0.25452994822568603
0.0109375,0.2546002151911571
0.010958333333333334,0.2546505306779496
0.010979166666666667,0.2546807524241164
0.011,0.2546908244146315
0.011020833333333332,0.25468077680652706
0.011041666666666667,0.25465072548793144
